 2045
 2021
 2020
 2021
 1977
 2076
 2061
 2074
 2061
 2119
 2071
 1988
 2011
 2125
 2004
 1959
 1992
 2005
 2046
 1990
 1972
 1984
 2006
 1985
 2006
 1974
 2149
 2059
 1995
 2040
 1989
 2049
 2029
 2027
 2023
 2097
 2056
 2038
 1947
 2060
 1957
 2058
 2042
 2062
 2056
 2019
 2079
 2055
 1997
 2066
 2074
 1984
 2131
 2005
 2055
 1945
 1988
 2060
 2069
 2082
 2051
 2023
 2057
 2026
 2093
 1991
 1975
 2019
 2014
 1994
 2059
 2030
 2028
 2054
 2030
 2123
 2050
 2038
 2075
 2133
 2018
 2000
 2047
 1988
 1982
 2000
 2141
 2079
 2010
 2072
 2110
 2010
 2066
 2062
 2064
 2080
 2065
 2044
 2050
 2029
 1998
 2071
 2064
 2155
 1979
 2002
 2051
 1998
 2014
 2000
 2055
 2050
 2076
 2074
 2096
 2058
 2060
 2054
 2036
 2035
 1974
 2064
 1998
 2056
 2074
 2066
 2064
 2016
 2054
 2052
 2075
 2102
 2054
 2016
 2072
 2063
 2024
 2059
 2126
 2006
 2072
 2071
 2070
 2011
 1985
 2021
 1967
 2042
 2042
 2090
 2072
 2055
 2022
 2133
 1984
 1958
 2052
 2104
 1995
 2077
 2116
 2028
 2074
 2098
 2058
 2054
 1956
 2052
 2055
 1998
 1966
 2041
 1972
 1992
 2034
 2040
 2036
 2054
 2000
 2074
 2056
 1989
 2044
 2062
 2072
 2046
 2005
 2013
 2032
 2055
 2091
 2018
 2063
 2038
 1994
 2061
 2034
 2012
 2056
 2060
 2110
 2042
 2060
 2072
 2069
 2024
 2030
 2009
 1981
 2067
 2049
 2083
 2046
 1965
 2039
 2056
 2008
 2066
 2009
 2109
 2068
 2070
 2067
 2054
 2008
 1993
 2062
 2063
 2028
 1949
 1975
 1990
 2096
 2053
 2002
 2021
 2043
 2064
 2049
 2063
 2066
 2052
 1992
 2055
 1987
 2047
 1991
 2000
 2019
 2033
 2033
 2030
 2035
 2028
 1996
 2001
 2085
 2105
 2057
 2101
 2122
 2040
 2028
 2062
 2106
 1968
 1976
 2045
 1991
 2026
 1953
 2032
 2040
 2050
 2059
 1969
 2058
 1995
 1997
 2048
 2046
 2124
 2086
 2070
 2123
 2081
 2042
 2070
 2002
 2102
 2046
 2046
 1956
 1990
 2089
 1969
 1972
 2001
 2069
 2050
 2137
 2063
 2045
 2086
 2014
 2046
 2058
 2046
 2000
 2110
 2013
 2060
 2042
 1991
 2009
 2120
 2039
 2070
 2118
 2075
 2076
 2081
 1980
 2078
 1996
 1996
 2032
 2070
 2002
 2016
 2023
 1988
 2062
 2002
 2025
 2046
 2070
 2029
 2073
 2049
 1990
 2064
 2023
 2070
 1996
 2041
 2049
 2068
 1984
 2046
 1956
 2058
 2054
 2047
 2034
 2044
 2052
 2041
 2000
 2106
 2059
 2011
 2046
 1972
 2009
 2066
 1998
 2030
 1955
 2049
 2129
 2056
 2051
 2105
 2049
 2102
 2072
 2074
 2002
 2138
 2115
 2046
 1998
 2080
 2025
 2117
 2131
 2078
 2061
 2067
 2061
 2031
 1983
 2084
 1994
 2020
 1987
 2086
 2070
 1998
 2084
 2147
 2061
 2076
 2014
 2038
 1996
 2060
 2079
 2029
 2058
 2042
 1987
 2118
 2078
 2047
 2091
 2111
 2036
 2058
 2057
 2072
 2034
 2064
 2045
 2051
 2043
 2062
 1982
 2025
 2049
 2021
 2042
 2100
 2112
 2051
 2062
 2057
 2064
 2064
 2095
 2073
 2031
 2068
 2085
 2026
 2013
 2098
 1970
 2012
 1996
 2068
 2060
 1994
 2052
 2018
 2016
 2004
 2054
 1976
 2047
 2096
 2012
 2085
 2061
 2140
 2072
 2129
 2054
 2040
 2080
 2024
 2077
 2068
 2072
 2049
 2002
 2097
 2032
 2009
 2028
 1991
 2109
 2092
 2109
 2059
 2059
 2078
 2050
 2067
 2035
 1997
 2073
 2092
 2014
 2008
 2148
 2056
 2152
 2066
 2039
 2059
 2030
 2078
 2069
 2117
 2061
 2052
 2041
 2006
 1978
 2028
 2050
 2057
 2058
 2098
 2091
 2084
 2054
 2076
 2015
 2056
 2051
 2043
 1978
 2013
 2053
 2028
 2024
 2093
 2077
 2088
 2016
 1987
 2017
 1988
 1988
 2006
 2047
 2067
 2018
 2008
 1981
 2071
 1960
 2057
 2044
 2006
 1983
 2032
 1959
 2069
 2065
 2047
 2062
 2063
 2012
 2004
 2054
 2032
 2041
 2043
 2051
 2030
 2099
 2113
 2060
 2019
 2001
 2068
 1966
 2047
 2077
 1974
 2066
 2007
 2033
 2148
 2000
 2045
 2053
 2023
 2094
 2053
 1997
 2043
 1976
 2047
 2049
 1967
 2040
 2100
 2060
 2050
 1994
 1971
 2061
 2008
 2010
 2034
 2075
 2056
 2059
 2032
 2016
 2046
 2005
 2120
 2071
 2080
 2055
 2047
 2030
 2070
 2078
 2087
 2033
 2037
 2109
 1994
 2084
 2076
 2024
 2092
 2045
 2118
 2085
 2087
 2033
 2054
 2069
 2093
 2088
 2077
 2099
 2087
 2095
 2152
 2069
 2025
 2007
 2084
 2073
 2011
 2094
 2074
 2082
 1973
 2068
 2081
 2060
 2074
 2074
 2085
 2094
 2088
 2082
 2059
 2063
 2142
 2045
 1984
 2001
 2084
 2130
 1989
 2001
 1980
 2031
 2104
 2000
 2026
 2044
 2022
 2064
 2083
 2000
 2066
 1992
 2072
 1975
 2054
 2045
 2046
 1954
 2026
 2058
 2062
 2050
 2051
 2068
 2012
 2065
 1983
 2030
 1986
 2112
 1983
 2064
 2069
 2004
 2020
 2036
 2056
 2063
 2011
 2066
 2079
 2015
 2065
 2023
 2039
 2033
 2063
 2061
 2103
 2070
 1960
 2011
 2048
 2040
 1974
 2023
 2032
 2000
 2034
 2067
 2071
 2066
 2079
 1998
 2107
 2089
 2136
 2089
 2086
 1988
 2066
 2082
 2145
 2013
 2042
 1948
 1998
 1948
 1980
 2042
 1982
 2124
 2054
 2066
 2049
 2021
 2035
 1959
 2037
 2051
 2011
 1964
 2032
 2121
 2055
 2050
 2028
 1999
 1976
 2055
 2096
 2038
 2030
 1990
 2059
 2124
 2043
 2069
 2037
 2133
 2066
 2053
 2065
 2130
 2009
 2051
 2050
 2049
 1983
 2043
 2103
 2064
 2058
 2008
 2062
 2023
 2094
 1999
 2071
 2108
 1970
 2060
 2012
 2058
 2127
 2072
 1995
 2063
 2064
 2002
 2085
 2041
 2075
 2018
 2052
 2071
 2101
 2067
 2040
 2041
 2039
 2015
 2066
 2060
 2046
 1984
 2060
 2058
 1997
 1992
 2111
 2094
 2151
 2095
 2151
 1992
 2070
 2070
 2029
 2079
 2003
 2061
 2066
 2000
 2020
 2165
 2062
 2061
 2065
 2109
 1999
 1984
 1984
 2052
 2050
 2010
 1986
 2074
 2088
 2093
 2019
 2002
 2080
 2021
 2050
 2046
 2036
 2139
 1980
 1999
 1989
 2060
 2083
 2030
 2000
 2027
 2145
 2099
 1969
 2021
 2108
 1949
 1996
 2075
 2006
 2094
 2142
 2040
 2004
 2078
 2071
 2082
 2034
 2049
 1986
 1989
 2031
 2047
 2007
 2127
 2010
 2003
 2031
 2070
 2037
 2129
 2112
 2159
 2185
 2103
 2129
 2108
 2073
 2015
 1987
 1960
 1995
 2012
 2028
 1944
 1942
 2025
 1984
 2070
 2123
 2024
 2098
 2094
 2079
 2091
 2148
 2243
 2341
 2210
 2128
 2092
 2145
 1965
 2022
 2058
 2076
 2037
 2139
 1972
 2060
 2043
 2089
 1953
 2064
 2028
 2035
 1987
 2033
 2044
 2097
 2108
 2018
 2098
 2011
 2085
 2095
 2002
 2023
 1930
 2014
 2036
 2016
 2002
 1965
 2057
 2095
 2205
 2140
 2090
 2019
 2052
 2178
 2110
 2061
 2015
 2123
 2024
 2064
 2065
 2091
 2064
 1972
 2040
 2067
 1972
 1949
 2008
 2105
 2160
 2105
 2067
 2155
 2088
 2043
 2004
 2114
 2150
 2159
 2107
 2056
 2017
 2016
 1967
 2040
 2025
 2058
 2095
 2012
 2128
 2018
 2086
 2069
 2052
 1953
 2024
 2033
 2089
 2061
 1975
 1998
 2086
 2018
 2016
 2017
 2044
 1966
 2048
 2056
 2081
 2003
 2010
 2055
 2000
 2136
 2180
 2100
 2143
 2131
 2094
 2020
 1966
 2008
 2085
 2214
 2206
 2194
 2114
 2079
 2068
 2058
 2051
 2071
 2129
 2108
 1988
 2073
 2084
 2148
 2106
 2035
 1936
 2020
 2011
 2047
 2115
 2000
 2128
 2107
 2128
 2050
 2161
 2215
 2226
 2244
 2060
 2127
 2147
 2077
 2005
 1864
 1952
 1932
 1925
 1913
 1865
 1979
 1968
 2012
 1989
 2001
 2018
 1970
 2125
 2027
 2107
 2061
 2034
 2044
 2064
 1988
 1992
 1983
 2024
 1993
 1980
 2016
 1976
 1970
 1964
 1964
 1984
 2016
 2103
 2051
 2083
 1965
 1998
 2107
 2065
 2124
 2227
 2092
 2107
 2228
 2280
 2208
 2156
 2132
 2186
 2132
 2074
 1951
 1830
 1926
 2019
 1964
 2047
 2054
 2243
 2272
 2346
 2446
 2480
 2314
 2055
 2016
 2062
 2054
 1838
 2042
 1962
 1859
 1853
 1904
 1955
 1932
 1869
 1922
 2048
 1981
 1979
 1986
 2003
 2052
 1973
 1916
 2102
 2047
 2235
 2132
 2034
 2096
 2161
 2168
 2192
 2184
 2247
 2124
 1998
 1986
 1984
 1984
 2013
 2148
 2096
 2045
 2019
 2052
 2004
 2019
 2179
 2083
 2064
 1957
 1992
 2077
 2130
 2184
 2040
 1990
 2008
 1985
 1997
 2035
 2123
 2115
 2144
 2232
 2273
 2196
 2200
 2080
 2012
 2071
 1979
 1918
 1814
 1954
 2011
 2072
 2000
 2033
 2012
 2045
 2047
 1964
 2094
 2266
 2357
 2423
 2270
 2264
 2099
 1993
 1910
 1942
 2063
 2120
 2095
 2034
 2091
 2010
 2045
 2018
 2076
 1979
 1894
 1861
 1883
 1922
 1967
 1931
 2083
 2104
 2134
 2148
 2164
 2330
 2317
 2221
 2058
 1884
 2027
 2066
 1977
 2024
 2057
 2010
 1945
 1988
 1973
 1857
 1882
 2052
 1952
 1950
 2022
 2078
 2288
 2453
 2331
 2361
 2453
 2190
 2185
 2246
 2119
 2158
 2218
 2004
 2103
 1920
 1959
 1904
 1680
 1807
 1966
 1981
 2045
 1996
 2048
 1923
 2046
 2128
 2163
 2230
 2369
 2214
 2137
 2018
 1934
 1974
 2008
 1956
 1962
 1944
 1968
 1982
 1938
 2024
 1955
 2087
 2023
 2047
 1995
 1995
 2006
 2059
 2061
 2129
 2085
 2124
 2147
 2128
 2136
 2071
 2149
 2204
 2167
 2083
 2031
 1898
 1846
 1974
 1912
 2008
 2011
 1970
 1974
 1987
 2015
 2140
 2255
 2293
 2447
 2485
 2480
 2570
 2419
 1985
 1824
 1879
 1998
 1988
 1919
 1841
 1879
 1946
 2041
 1941
 1965
 1957
 1995
 1989
 1915
 2035
 2059
 2129
 2035
 2011
 2040
 1985
 2089
 2193
 2069
 2089
 2194
 2093
 2099
 1954
 1821
 1843
 1876
 1971
 2143
 2301
 2331
 2376
 2583
 2635
 2513
 2325
 2133
 1953
 2054
 2434
 2207
 1847
 1806
 1697
 1734
 2103
 2269
 2244
 2265
 2279
 2141
 2017
 1997
 2035
 1948
 2237
 2235
 2273
 2134
 2174
 2305
 2589
 2397
 2463
 2565
 2445
 2068
 1829
 2009
 2018
 2102
 2126
 2159
 2034
 2103
 1999
 1875
 1861
 2014
 2324
 2364
 2465
 2803
 2854
 2940
 3013
 2871
 2486
 2355
 2003
 1779
 1514
 1798
 1916
 2092
 2193
 1902
 1905
 1922
 1924
 1590
 1662
 1666
 1620
 1807
 1877
 2015
 2349
 2387
 2410
 2478
 2726
 3060
 2867
 2465
 2400
 2149
 2121
 1858
 1969
 1704
 1951
 2403
 2879
 3078
 2934
 3165
 2384
 1835
 1524
 1444
 1977
 2385
 2338
 2425
 2056
 2136
 2012
 1958
 1668
 1942
 2017
 1653
 1522
 1452
 1942
 2268
 2256
 2328
 2434
 2324
 2175
 1927
 2186
 2734
 2970
 2936
 2256
 1711
 1267
 1441
 1687
 1858
 1822
 1945
 1927
 1753
 2050
 2208
 2076
 2188
 2516
 2913
 2927
 2930
 2847
 2145
 1406
 1766
 2217
 2002
 2905
 2972
 2992
 2731
 1759
  965
 1200
 1522
 2182
 2531
 2301
 2060
 1558
 1310
 1944
 2276
 2396
 2983
 2530
 2614
 2996
 2803
 2626
 2241
 2391
 1686
  705
  515
 1327
 2014
 2123
 1967
 1891
 1998
 1953
 2297
 2414
 2412
 2222
 1846
 2074
 1873
 2197
 2129
 1853
 2026
 2017
 2204
 2237
 2109
 2028
 2373
 1736
 1864
 1737
 1758
 1744
 1782
 1957
 2258
 2843
 2738
 2679
 1959
 1306
 1275
 1743
 2277
 2610
 2463
 2780
 2912
 2788
 2574
 2076
 2084
 1849
 1257
 1472
 1869
 1877
 2226
 2880
 2640
 2329
 2451
 2668
 2509
 1890
 1545
 1822
 1703
 2152
 2222
 2208
 2380
 2456
 2300
 1907
 1367
 1971
 2167
 1770
 1937
 2015
 1694
 1783
 1895
 2032
 1970
 1621
 1754
 2084
 2381
 2229
 2215
 1766
 1664
 1870
 1805
 1920
 1939
 2431
 2952
 3002
 2442
 1807
 1573
 1440
 1327
 2320
 3054
 2242
 2033
 1759
 2164
 2028
 2342
 2200
 1687
 1857
 2735
 3142
 2673
 2395
  797
  921
 1587
 2080
 2509
 3287
 3774
 3966
 2332
 1226
  467
 1196
 2077
 2055
 2430
 2055
 1826
 1334
 1215
 1141
 1539
 1643
 1790
 2130
 1985
 2398
 2475
 2462
 2291
 2263
 2199
 1584
 1798
 1873
 1930
 1941
 2195
 2359
 2256
 2304
 1914
 1922
 1866
 1969
 1864
 1649
 2007
 2167
 2598
 2441
 2383
 1911
 1924
 1461
 1750
 2079
 2548
 2407
 1588
 2370
 3106
 2809
 2038
 1560
 1590
 1824
 1858
 2183
 1840
 1979
 1690
 2167
 2967
 2625
 2106
 1689
 1732
 2120
 2181
 1949
 1939
 1978
 1828
 1649
 1918
 2112
 1900
 1810
 2063
 2140
 2094
 2355
 2374
 2486
 2962
 2487
 2490
 2500
 1954
 1368
 1432
 1335
 1824
 2090
 1954
 2026
 1885
 1877
 1681
 1733
 2237
 2300
 2435
 3377
 2893
 2532
 1756
 1387
 1660
 2085
 2407
 2069
 1878
 2290
 2326
 1887
 1853
 1923
 1880
 1829
 1775
 1965
 2105
 2117
 1981
 2037
 2267
 2422
 2296
 1923
 1812
 1824
 2281
 2441
 2352
 2365
 2033
 1416
 1380
 1648
 2148
 2046
 2068
 1883
 1717
 1867
 1989
 2099
 2245
 2149
 1849
 1910
 1840
 1885
 1823
 2252
 2630
 2493
 2942
 2627
 2178
 1889
 1841
 1589
 1840
 1983
 2046
 2172
 2077
 2146
 2471
 2342
 1787
 1909
 2152
 2248
 2134
 2004
 1725
 1734
 1922
 1918
 1917
 1900
 1898
 2034
 1982
 2035
 1867
 1916
 1942
 1931
 2059
 1960
 2058
 2013
 1848
 1932
 1946
 2027
 2007
 2015
 2052
 2016
 2074
 2035
 2059
 1990
 2017
 2197
 2005
 1975
 2175
 2554
 2246
 2088
 2047
 2043
 2111
 1951
 1674
 1534
 2176
 2431
 2167
 1962
 1874
 2107
 1968
 2013
 1828
 1768
 1835
 2141
 2172
 2345
 2300
 2361
 2210
 1921
 1948
 2064
 2027
 2193
 2292
 2432
 2515
 2299
 1791
 1395
 1687
 1976
 1948
 1973
 1956
 1966
 1885
 1967
 1992
 2029
 1968
 1955
 1997
 2042
 1988
 2058
 2051
 2003
 2059
 2005
 2053
 2004
 2061
 2054
 2020
 2018
 2002
 2031
 2001
 2076
 2162
 2062
 2108
 2058
 2078
 2001
 1974
 2087
 2055
 1996
 1919
 1973
 2072
 2085
 2045
 2109
 2032
 2028
 2034
 1951
 1992
 1899
 2032
 1926
 2025
 1965
 2054
 1990
 1997
 2062
 2003
 2055
 1931
 1933
 1895
 2082
 2078
 2243
 2086
 2041
 2048
 2064
 2072
 2252
 2238
 2084
 1938
 2038
 1977
 1928
 2021
 2070
 2048
 2036
 1989
 1942
 2033
 1963
 1945
 1991
 1937
 2061
 2089
 2117
 2027
 2074
 2064
 2025
 1906
 1983
 1959
 1918
 1947
 2066
 2057
 1997
 2026
 2036
 2030
 1931
 2039
 2042
 1986
 1984
 1960
 2032
 2056
 2109
 1949
 2026
 2010
 2032
 1933
 1987
 2011
 1958
 2031
 2070
 2016
 2035
 2062
 2030
 2027
 1981
 1964
 2044
 2046
 1932
 2045
 2035
 2082
 2029
 1982
 1980
 2032
 1942
 2054
 2044
 2032
 2024
 2042
 2046
 2121
 2069
 2055
 2033
 2038
 2004
 2064
 2100
 2032
 2123
 2028
 2068
 2072
 2056
 2008
 2080
 2006
 1997
 2052
 2017
 2012
 2042
 2063
 1972
 1905
 1965
 1920
 2009
 2046
 2086
 2136
 2118
 2139
 2044
 1965
 1864
 1922
 1827
 1989
 1984
 1918
 1884
 2065
 2078
 2068
 2065
 2034
 2066
 2006
 1990
 2025
 2015
 1968
 2025
 2036
 2041
 1944
 2037
 1961
 2025
 2012
 1967
 1945
 1912
 1987
 1987
 2079
 2047
 2044
 2072
 2128
 2025
 2047
 2002
 2016
 1990
 2007
 2081
 2016
 2125
 1965
 2113
 1997
 2024
 2052
 2010
 2002
 2042
 2102
 1993
 2016
 2025
 2079
 1946
 2076
 2078
 2074
 2123
 2073
 2073
 2059
 2117
 2059
 2048
 2076
 2045
 2057
 2038
 2047
 2056
 1985
 2050
 2026
 1998
 2081
 2065
 2134
 2049
 2065
 2070
 2054
 2127
 2072
 2004
 2027
 1952
 2049
 2046
 2056
 1978
 2033
 2141
 2015
 2054
 2027
 2066
 2045
 2018
 2046
 1979
 1985
 2023
 1972
 2047
 2042
 1957
 1999
 1919
 2014
 2002
 2009
 1988
 2018
 1930
 2050
 2046
 1982
 2057
 2006
 1961
 2046
 1957
 2045
 2003
 2069
 2025
 2040
 2082
 2087
 2040
 2043
 2065
 2040
 2028
 2070
 2130
 2113
 1965
 2000
 2044
 2004
 2034
 2012
 2040
 1972
 2000
 2035
 1993
 2049
 2097
 2067
 2052
 2062
 2064
 2066
 1980
 2012
 2119
 2007
 2031
 1999
 2075
 1996
 2004
 2022
 2016
 2046
 2123
 1974
 2032
 1995
 2119
 2015
 2058
 2055
 2065
 2052
 1966
 1994
 2113
 2057
 1967
 2046
 2057
 2025
 2037
 2068
 2126
 2058
 2016
 2038
 2077
 2006
 2036
 2020
 2038
 1998
 2050
 1980
 2070
 2138
 2062
 2052
 2022
 2022
 1965
 2093
 2049
 1989
 2038
 2064
 1984
 2067
 2086
 2131
 2046
 2000
 1981
 1972
 2035
 2076
 1980
 2032
 1977
 2068
 2014
 2048
 2069
 1983
 2098
 2049
 2005
 2126
 2018
 2025
 2008
 2040
 2047
 1977
 2058
 2057
 2101
 2037
 2023
 1983
 2058
 2040
 2087
 1974
 2056
 2064
 2094
 1992
 2104
 2088
 2034
 2074
 1995
 2132
 2041
 2010
 2004
 2115
 1989
 2103
 2000
 2119
 2060
 2152
 2138
 2053
 2047
 2070
 2019
 2072
 1974
 2034
 2058
 2121
 2065
 1998
 2059
 1989
 2089
 1988
 2001
 2019
 1986
 2010
 2023
 2102
 2078
 2016
 2117
 2124
 2060
 2070
 2052
 2060
 2052
 2068
 2059
 2001
 2096
 1973
 2065
 2015
 2074
 1988
 2082
 2084
 2072
 2122
 2070
 2131
 2026
 2036
 2127
 2119
 2058
 2040
 2073
 1975
 2114
 2070
 2011
 1986
 2071
 2085
 2092
 2061
 1999
 2024
 1995
 2052
 2081
 1993
 2066
 1952
 2037
 1961
 2011
 1962
 2035
 1989
 2053
 2000
 2074
 2070
 2014
 2059
 2061
 2065
 1992
 2071
 1978
 2053
 2018
 1981
 2054
 1994
 2050
 2062
 2110
 2102
 2045
 2016
 2000
 2060
 2062
 2025
 1994
 2070
 2022
 2038
 2029
 2050
 2043
 2016
 2084
 2016
 2028
 2034
 2107
 2055
 2065
 2003
 2060
 2065
 2079
 2021
 2006
 2097
 2043
 2085
 2047
 2000
 2040
 1985
 2015
 1989
 2026
 1988
 2002
 2005
 2098
 1960
 2027
 2030
 2062
 2120
 2089
 2061
 2050
 1992
 2033
 1988
 2024
 1991
 2047
 1953
 1969
 2104
 2032
 2021
 2042
 2046
 2086
 2012
 2049
 2044
 2067
 2015
 2000
 2044
 2019
 2062
 2074
 2007
 2050
 2072
 1993
 2049
 2072
 2110
 2074
 2070
 2052
 2033
 2076
 2061
 2068
 2063
 2053
 2049
 2053
 2029
 2117
 2058
 2037
 2038
 2049
 2074
 2110
 2058
 1985
 2000
 2062
 2049
 2000
 2074
 2008
 2058
 2108
 2079
 1991
 2033
 1992
 1988
 1951
 1980
 2075
 2010
 2003
 2035
 2012
 2107
 2055
 2017
 1998
 2045
 1988
 1990
 2079
 2076
 2036
 2059
 2049
 2040
 2041
 1963
 2068
 1967
 1996
 1992
 2020
 2024
 2062
 2003
 2056
 2046
 2053
 2045
 2096
 2060
 2061
 2025
 1992
 2049
 1970
 2047
 2041
 2108
 2054
 2115
 1971
 2047
 2064
 2060
 2002
 1988
 2046
 2069
 2056
 2121
 2012
 2046
 2115
 2082
 2016
 2111
 2067
 1962
 2082
 2077
 2066
 2057
 2046
 2077
 2149
 2026
 2022
 1973
 2025
 2061
 2055
 1975
 2017
 2048
 2056
 2034
 2030
 2073
 2041
 2063
 2075
 2053
 2078
 2076
 2093
 2072
 1967
 2110
 2050
 2080
 2074
 1966
 2104
 2042
 2104
 2010
 2018
 2101
 2050
 2051
 2093
 2028
 2072
 2067
 2009
 2008
 1983
 2013
 2008
 2043
 1980
 2058
 2061
 2020
 2016
 2125
 2070
 1981
 1968
 2011
 2073
 2110
 2062
 2015
 2047
 2058
 1976
 2066
 2069
 1993
 2003
 2060
 2043
 2053
 2051
 2084
 1988
 2068
 2008
 2061
 2015
 2054
 2046
 2067
 2072
 2076
 1999
 2064
 2002
 2078
 1983
 2025
 2058
 2038
 2026
 2058
 1977
 2076
 2072
 2038
 2068
 2070
 2051
 2068
 1986
 2005
 2055
 2056
 2027
 2040
 1997
 2097
 2030
 1984
 2064
 2057
 2084
 2082
 2067
 2066
 2056
 2050
 2074
 2030
 2030
 2061
 2061
 2042
 2000
 2098
 2004
 2077
 2044
 2058
 2017
 2070
 2036
 1987
 1978
 2064
 2046
 1995
 2037
 2046
 2099
 2062
 2073
 2103
 2013
 2030
 2002
 2066
 2061
 2056
 2058
 2078
 2073
 2064
 2115
 1995
 2024
 2083
 2010
 2016
 2076
 2049
 2017
 2074
 2114
 2074
 1989
 2061
 1977
 2133
 2107
 2074
 2091
 2033
 2057
 2077
 2044
 2032
 2051
 1988
 2027
 2134
 2081
 1992
 1970
 1966
 2011
 1947
 2008
 2084
 2156
 2065
 1980
 2029
 2090
 2060
 2062
 1990
 2046
 1992
 2049
 1984
 2028
 1961
 2051
 2109
 2060
 2052
 2013
 2094
 2072
 2072
 1915
 2010
 2026
 2065
 2061
 2099
 2026
 2060
 1972
 2109
 1964
 2038
 2117
 1996
 2089
 2125
 1981
 2134
 1981
 2033
 2053
 2043
 2073
 2156
 2110
 2010
 1998
 2052
 2073
 2086
 2000
 1998
 2074
 2054
 1993
 2058
 2070
 2044
 2070
 2090
 2078
 2062
 2033
 2054
 1966
 2146
 2097
 2119
 1985
 2031
 2047
 2052
 2041
 2000
 1969
 1962
 2086
 2060
 2052
 2060
 2080
 2000
 2074
 2098
 2049
 1998
 2043
 1996
 2063
 2059
 1978
 2004
 2053
 1970
 2081
 1972
 2036
 2071
 2094
 2140
 2077
 2072
 2088
 2071
 1997
 2054
 1993
 2046
 2010
 2000
 1951
 1930
 2025
 2064
 2039
 2125
 1997
 2026
 2028
 2073
 2055
 2066
 2076
 1929
 2021
 2043
 1945
 1994
 2152
 2102
 2072
 2092
 2037
 2136
 2175
 2229
 2260
 2232
 2151
 2091
 2067
 1943
 1908
 1942
 1826
 1968
 2022
 2020
 1991
 1985
 2013
 1957
 1938
 2026
 2016
 2040
 1946
 1958
 1922
 2077
 2028
 2053
 2041
 2051
 2059
 2047
 2072
 2107
 1990
 2056
 2024
 1976
 1999
 2085
 2078
 1984
 1932
 2001
 2053
 1995
 2094
 2072
 2016
 2083
 2043
 2137
 2012
 2068
 2067
 2059
 2092
 2036
 2060
 2054
 2047
 2105
 2120
 2083
 2039
 2061
 2053
 2034
 2080
 2085
 2163
 2111
 2250
 2261
 2409
 2400
 2340
 2346
 2198
 2168
 2135
 2252
 2272
 2166
 2256
 2307
 2184
 2043
 2096
 2052
 2067
 2045
 2002
 2079
 2106
 1925
 1841
 1801
 1906
 1903
 1954
 2037
 1909
 2031
 2070
 2064
 1982
 1981
 1990
 1991
 1915
 1881
 1834
 1889
 1918
 1855
 1957
 1930
 1990
 1981
 1903
 2082
 2059
 2046
 2004
 2110
 1990
 2080
 2074
 2155
 2096
 2153
 2079
 2170
 2042
 2067
 2169
 2081
 2138
 2166
 2126
 2099
 2111
 2104
 2015
 1893
 1990
 2072
 2178
 2159
 2154
 2420
 2277
 2414
 2405
 2586
 2568
 2400
 2420
 2298
 2275
 2261
 2215
 2072
 1876
 1641
 1704
 2059
 2451
 2708
 2781
 3076
 2975
 2803
 2699
 2544
 2099
 1805
 1666
 1417
 1233
 1450
 1419
 1556
 1714
 1778
 1741
 1870
 1723
 1824
 1863
 1885
 2006
 2048
 2061
 2082
 2060
 2000
 2130
 2136
 2058
 2143
 1963
 1953
 2070
 2151
 2234
 2185
 2142
 2165
 2174
 2256
 2301
 2416
 2250
 1784
 1713
 1800
 2042
 2298
 2582
 2467
 2652
 2997
 2874
 2459
 2147
 2274
 2484
 1948
 1624
 1702
 1655
 1951
 2068
 2082
 1930
 1730
 1688
 1753
 1835
 1927
 1972
 1831
 1754
 1842
 1918
 1943
 2069
 2020
 2022
 1911
 1804
 1988
 2237
 2296
 2341
 2420
 2704
 2840
 2940
 2901
 2691
 2412
 2125
 2135
 2207
 2349
 2159
 2059
 2188
 1888
 1872
 1783
 1464
 1489
 1467
 1835
 1846
 2225
 2535
 2625
 2550
 2531
 2456
 2291
 2068
 1965
 1989
 2242
 2047
 2179
 2228
 2460
 2296
 2548
 3162
 3162
 2911
 2528
 2209
 1841
 1469
  988
 1053
 1117
 1248
 1410
 1702
 1746
 1796
 1692
 1744
 1868
 2015
 2102
 2188
 2193
 2109
 1994
 2144
 2368
 2438
 2335
 2326
 2527
 2464
 1996
 1897
 2117
 1976
 1557
 1555
 1711
 1971
 1925
 1959
 2260
 2237
 2574
 2693
 2753
 2879
 3326
 2651
 2814
 2368
 1278
 1429
 1580
 2004
 2016
 2446
 2161
 1811
 2198
 2203
 1812
 1861
 1632
 1549
 1572
 1966
 2202
 2380
 2394
 2424
 2617
 2484
 1874
 1534
 1545
 1825
 2136
 2247
 2137
 2264
 2557
 2485
 2994
 3233
 3164
 2951
 2564
 1765
  989
  639
 1107
 1767
 2009
 2179
 2365
 2249
 1713
 1706
 1506
 1727
 1797
 1836
 1671
 1750
 1728
 1915
 2280
 2349
 2548
 3062
 2908
 2265
 2380
 1756
 1122
 1698
 2530
 2540
 2086
 2074
 1788
 1416
 1676
 2291
 2674
 2242
 2587
 2575
 2128
 2608
 2375
 2170
 1739
 1634
 1420
 1613
 1683
 2430
 3470
 3202
 2341
 1645
  824
 1300
 1725
 1817
 1756
 2060
 2411
 1982
 1610
 1496
 2052
 2392
 2404
 1927
 1914
 1993
 1815
 2007
 2208
 2229
 2328
 2160
 2070
 2570
 2894
 2809
 2685
 1968
 2703
 2416
 2114
 1376
 1165
 1704
 1879
 1352
 1572
 2003
 2298
 2154
 2015
 2262
 2303
 2032
 1639
 1851
 2470
 2638
 2435
 1721
 1021
 1785
 2293
 2203
 2344
 2408
 1892
 1317
 1507
 2001
 1930
 1796
 1823
 1863
 1905
 1912
 1728
 1739
 1982
 2172
 2298
 2432
 2537
 2717
 2464
 1907
 2737
 3135
 3482
 1805
 1663
 1008
 1393
 2710
 2711
 2399
 1314
 1301
 1563
 1758
 2131
 2256
 1872
 2041
 2350
 2855
 3120
 3351
 2894
 1093
 1264
 1313
 1536
 1917
 1837
 2068
 1882
 2154
 2158
 1932
 2090
 2208
 2813
 3410
 2632
 1862
 1439
 1292
 1897
 2338
 2562
 2305
 2280
 1668
 2072
 2362
 2488
 2719
 2588
 1524
 1109
 1075
 1181
 1979
 2297
 2330
 2579
 2155
 1753
 1624
 1990
 2321
 3252
 2935
 2184
 1682
 2172
 1613
 2492
 2880
 2641
 1551
  859
  991
 1373
 1630
 2004
 1955
 1948
 1910
 1753
 2023
 2407
 2948
 2736
 2697
 1788
 1189
  860
 1093
 1195
 1841
 2092
 2780
 2548
 3727
 3308
 2341
 1624
 1585
 1719
 1698
 1150
 1065
 1312
 1390
 1740
 2183
 2121
 2158
 2128
 2221
 2196
 2328
 2473
 1805
 2690
 3000
 2874
 1950
  986
  905
 1516
 2776
 3811
 3852
 3396
 1659
  741
 1149
  748
 1220
 1756
 1819
 1701
 1936
 1640
 1512
 1530
 2110
 2059
 2012
 1898
 1788
 1582
 1747
 1930
 2723
 3199
 2525
 1888
 1565
 1078
 1378
 1722
 2117
 2385
 2715
 1796
  828
 1742
 2450
 2353
 2808
 2677
 3174
 2070
 2223
 1909
  843
 1236
 1928
 1753
 2000
 2020
 1702
 1888
 2066
 1985
 2144
 2196
 2190
 2106
 2050
 1842
 1745
 1750
 1929
 2039
 1729
 2130
 2132
 1930
 1854
 1440
 1804
 2027
 2312
 2199
 1992
 1821
 1969
 2087
 2026
 1492
 1942
 2212
 2513
 2480
 2083
 1710
 2384
 2114
 2034
 1825
 1721
 1496
 1238
 1599
 2105
 2069
 1883
 1996
 1987
 1938
 1630
 1528
 2206
 2848
 2649
 2154
 1822
 2039
 2046
 2065
 1845
 1812
 1961
 1784
 1884
 1911
 1966
 1854
 1799
 1994
 2109
 1923
 1942
 1989
 1859
 1938
 2060
 1960
 2052
 1990
 1897
 1983
 1929
 2012
 2040
 2023
 1946
 1899
 2105
 2005
 1983
 1956
 1932
 2058
 2063
 1907
 1987
 2044
 2046
 2006
 2204
 2263
 2058
 1938
 1750
 1793
 1918
 2007
 1875
 1941
 2026
 1971
 2007
 2013
 2040
 2092
 2012
 1886
 2034
 2075
 2146
 1903
 2033
 2087
 2075
 2216
 2150
 2189
 2216
 2102
 1926
 1889
 1809
 1864
 1884
 1907
 2036
 2066
 2130
 2089
 1937
 2032
 1964
 1923
 1948
 1988
 1848
 1844
 1863
 1947
 1955
 2020
 2062
 1890
 1896
 2100
 2174
 2006
 2081
 1995
 1985
 2022
 2000
 1929
 1983
 2009
 2044
 2079
 1996
 1936
 2040
 2053
 2020
 1994
 2041
 1977
 2040
 2036
 2085
 2002
 1965
 2070
 2032
 2118
 2037
 2121
 2067
 1959
 2080
 1969
 1976
 2076
 2038
 2116
 2044
 1980
 1955
 2044
 2017
 2022
 2027
 2058
 1966
 2041
 2035
 2041
 2032
 2063
 2060
 2041
 2043
 2036
 1954
 2026
 2022
 2010
 1984
 1964
 2052
 1958
 2051
 2036
 1966
 2048
 1990
 2009
 2013
 2120
 2038
 2030
 2030
 1936
 2016
 2084
 2048
 2054
 2040
 2038
 2015
 2098
 2064
 1952
 2033
 1927
 1942
 1928
 1950
 2004
 2003
 2050
 2105
 2092
 2053
 2076
 2059
 2052
 1971
 2056
 2036
 2121
 2065
 1977
 2058
 2027
 2044
 2032
 2039
 2001
 2041
 2100
 1980
 2087
 2043
 1952
 1988
 1926
 1952
 2091
 2107
 1963
 1999
 1884
 1955
 2027
 2019
 1962
 1966
 2054
 2019
 2045
 2036
 2046
 2026
 2026
 1982
 2032
 2037
 2020
 2044
 2012
 2038
 1993
 2022
 2020
 2038
 2027
 2056
 2085
 1999
 2053
 2072
 2057
 2041
 1994
 2071
 2058
 2055
 2089
 1966
 2126
 2042
 1961
 2039
 2008
 2001
 1984
 2038
 1980
 2060
 2034
 2130
 2097
 2090
 2054
 2022
 2013
 2004
 2040
 1992
 1975
 2021
 2056
 2024
 1983
 2069
 2056
 2087
 2093
 2078
 2135
 2122
 2076
 2106
 2110
 2031
 2106
 2142
 2134
 2109
 2089
 2132
 2094
 2064
 1973
 1970
 2022
 1958
 1998
 2033
 2076
 2020
 2024
 2126
 2076
 2046
 2018
 2068
 2009
 2059
 2052
 2002
 2074
 2012
 2115
 2013
 2029
 2124
 2089
 2144
 2047
 2019
 2068
 2027
 2137
 2012
 2065
 2090
 2004
 2116
 2029
 2072
 2136
 2033
 2084
 2139
 2084
 2096
 2098
 2036
 2077
 2042
 2083
 2050
 2039
 2013
 2018
 2070
 2081
 1989
 2035
 2081
 2023
 2074
 2066
 2064
 2044
 2104
 2058
 2085
 2023
 2107
 2085
 2050
 2101
 2027
 2086
 2111
 2122
 2018
 2013
 2090
 2095
 2050
 2084
 2041
 2076
 2074
 2104
 2047
 2063
 2085
 2086
 2106
 2120
 2100
 2047
 2089
 2103
 2015
 2164
 2162
 2089
 2095
 2122
 2106
 2105
 2094
 2062
 2151
 2094
 2056
 2103
 2098
 2135
 2016
 2037
 2035
 2030
 2042
 2099
 2026
 2057
 2107
 2130
 2116
 2015
 2096
 2106
 2057
 2105
 2045
 2113
 2046
 2068
 2111
 2023
 2167
 2158
 2113
 2018
 2108
 2080
 2147
 2085
 2110
 2021
 2130
 2115
 2166
 2052
 2133
 2164
 2094
 2092
 2095
 2168
 2038
 2163
 2160
 2142
 2090
 2110
 2090
 2102
 2136
 2097
 2082
 2146
 2042
 2000
 2034
 2094
 2095
 2081
 2099
 2104
 2081
 2045
 2133
 2045
 2001
 2088
 2089
 2137
 2060
 2062
 2042
 2091
 2015
 2095
 2088
 2079
 2080
 2062
 1997
 2158
 2004
 2078
 1998
 2002
 2076
 2005
 2092
 2099
 2154
 2026
 2072
 2082
 2058
 2145
 2037
 2013
 2075
 2148
 2115
 2084
 2065
 2053
 2022
 2076
 2154
 2081
 2001
 2088
 2020
 2062
 2113
 2059
 2078
 2080
 2066
 2082
 2096
 2080
 2079
 2044
 2076
 2030
 2088
 2152
 2085
 2086
 2094
 2098
 2098
 2090
 2071
 2173
 2109
 2088
 2144
 2091
 2055
 2086
 2030
 2131
 2122
 2068
 2070
 2020
 1999
 2087
 2075
 2076
 2006
 2119
 2032
 2083
 2064
 2047
 2084
 2117
 1982
 1996
 2001
 1985
 2000
 2052
 2024
 2072
 2021
 2052
 2076
 2093
 2090
 2029
 2038
 2135
 2111
 2045
 2013
 2086
 2058
 2084
 2066
 2069
 2022
 1983
 1995
 2098
 2063
 2036
 2079
 2010
 2151
 2109
 2105
 1996
 2088
 2089
 2009
 2020
 2074
 2023
 2062
 2074
 2085
 2075
 2078
 2078
 2078
 2030
 2027
 2034
 2078
 2005
 2070
 2150
 2082
 2014
 2093
 2016
 2005
 2004
 2029
 2007
 1989
 2120
 2128
 2071
 2105
 2064
 2010
 2090
 2047
 2083
 2043
 2041
 2092
 2052
 2136
 2034
 2007
 2071
 2147
 2085
 2054
 2084
 2035
 2082
 2098
 2079
 2096
 2105
 2076
 2043
 2100
 2084
 2080
 2063
 2085
 2035
 2024
 2143
 2079
 2075
 2032
 2085
 2114
 2092
 2096
 2053
 2096
 2090
 2156
 2018
 2100
 2098
 2080
 2079
 2047
 1992
 2106
 2020
 2014
 2035
 2077
 2162
 2102
 2207
 2104
 2080
 2185
 2121
 2089
 2091
 2116
 2239
 2072
 2102
 2229
 2203
 2174
 2172
 2208
 2184
 2187
 2204
 2251
 2211
 2190
 2191
 2212
 2212
 2200
 2219
 2138
 2118
 2184
 2178
 2186
 2088
 2173
 2173
 2109
 2141
 2112
 2086
 2122
 2151
 2098
 2165
 2160
 2155
 2070
 2138
 2122
 2200
 2172
 2130
 2026
 2020
 2063
 2178
 2107
 2103
 2155
 2025
 2093
 2047
 2053
 2096
 2106
 2109
 2089
 2142
 2056
 2001
 2080
 2060
 2008
 2102
 2032
 2067
 2058
 1977
 2084
 2093
 2084
 2091
 2084
 1992
 2042
 2100
 2120
 2012
 2152
 2078
 2029
 2046
 2057
 2025
 2125
 1971
 2064
 2069
 2036
 2132
 2010
 2116
 2009
 2066
 2011
 2044
 2024
 2116
 2016
 2073
 2053
 2046
 2022
 2134
 2057
 2006
 2114
 2004
 2068
 2037
 2084
 2079
 2084
 2028
 2005
 2074
 1980
 2042
 2067
 2031
 2054
 1971
 2045
 2101
 2022
 2071
 2029
 2099
 2042
 2065
 2078
 2027
 2014
 1974
 2056
 2098
 2050
 2049
 2092
 2049
 2047
 2060
 1933
 2000
 2070
 2046
 1997
 2036
 2045
 2071
 2026
 2045
 2027
 2037
 1996
 2057
 1968
 1946
 2046
 2021
 2003
 1948
 2104
 1975
 2038
 1994
 2028
 2044
 2068
 2016
 2036
 2068
 2010
 1960
 2056
 2056
 1942
 2032
 2016
 2038
 2025
 1984
 2036
 2034
 2010
 2004
 2000
 2064
 2014
 1998
 2146
 2061
 2012
 1972
 2050
 1989
 1962
 2082
 2056
 1979
 2033
 1998
 2004
 2070
 2058
 2043
 2040
 2127
 2065
 1972
 2070
 2096
 2061
 2132
 2029
 2075
 2088
 1969
 2059
 2024
 2018
 2042
 2057
 2065
 2068
 2067
 2054
 2012
 2075
 1996
 1989
 1986
 2069
 2077
 1974
 2010
 2121
 1980
 1988
 2040
 2052
 2054
 2083
 1974
 2066
 2061
 1983
 2051
 2031
 2045
 2074
 2017
 2108
 2055
 1993
 2058
 2037
 2063
 2043
 2035
 1964
 2080
 1948
 2046
 2018
 2062
 2036
 2058
 2044
 2066
 2045
 2051
 2087
 1977
 1999
 1964
 1984
 2031
 1928
 2030
 2007
 2018
 2033
 2000
 2098
 2013
 2052
 2123
 2026
 1968
 2095
 2022
 2054
 1956
 1958
 2072
 2036
 1997
 2085
 2057
 2029
 2095
 2037
 2111
 2016
 2107
 2105
 2002
 2012
 2094
 2044
 2062
 2044
 2049
 2076
 2093
 2027
 2073
 2024
 2020
 2040
 1969
 2000
 2054
 2081
 2060
 1966
 2136
 1976
 2063
 1970
 2053
 2043
 2055
 2020
 2037
 2069
 2021
 1983
 1974
 2045
 2032
 2036
 1991
 2040
 2057
 2053
 1990
 2077
 2055
 1968
 2036
 2114
 2117
 1996
 2098
 2039
 2088
 1974
 1994
 1984
 2030
 1961
 2056
 1964
 2123
 2018
 2057
 1958
 2066
 1963
 2044
 2044
 1979
 2032
 1974
 1984
 2038
 2112
 1992
 2079
 2029
 2061
 2043
 1991
 2020
 2123
 2001
 2051
 1970
 2029
 2053
 2061
 2079
 1970
 2111
 2032
 1963
 1970
 2052
 2037
 2094
 2033
 2008
 1976
 1978
 2060
 1976
 2069
 2047
 2070
 1961
 2040
 2029
 2068
 2076
 2028
 1972
 2003
 2115
 2058
 2008
 2042
 1982
 2070
 2011
 1990
 2019
 2010
 1978
 2009
 1993
 2042
 2032
 1963
 2012
 2027
 2094
 1977
 1960
 1982
 2039
 2000
 2078
 2078
 2069
 1979
 1991
 2137
 2057
 2061
 2051
 1976
 2045
 2099
 1952
 2016
 2029
 2040
 2042
 1996
 2025
 2133
 1993
 2013
 2023
 2051
 1962
 2013
 1970
 2043
 2041
 2046
 1988
 1987
 2066
 2042
 2050
 1932
 1974
 2089
 1970
 2041
 2040
 2026
 2016
 2060
 2063
 1993
 2062
 2102
 1973
 2034
 2063
 2050
 2013
 1979
 2050
 2052
 2046
 2010
 1990
 2070
 1954
 2019
 2055
 1974
 2060
 2042
 2056
 2053
 2093
 1976
 2011
 2052
 2078
 1986
 2048
 2046
 2008
 2006
 2049
 2066
 2051
 2051
 2041
 2004
 1972
 2036
 2017
 1944
 2047
 2025
 2030
 2032
 1945
 2102
 2000
 1991
 2002
 1950
 2022
 2039
 2056
 1970
 2071
 2052
 1958
 2042
 1988
 1956
 2009
 1992
 2004
 2048
 2046
 2025
 1968
 2037
 2089
 2034
 2038
 2124
 2056
 2067
 2141
 2045
 2109
 2104
 2062
 2057
 1983
 2061
 2058
 2055
 2016
 2041
 2108
 2007
 2012
 2061
 2024
 2103
 2005
 2042
 2125
 2055
 2103
 2119
 1967
 1986
 2110
 2024
 2045
 2018
 2030
 2063
 2004
 1993
 2051
 2053
 2056
 2037
 2025
 2002
 2056
 2000
 2038
 2060
 2037
 2040
 2119
 1978
 2025
 1997
 2124
 1960
 2084
 1978
 2062
 2092
 2104
 2013
 1999
 2079
 2108
 2070
 2058
 2037
 2054
 2066
 2111
 2033
 2008
 1969
 2029
 2098
 2058
 1984
 1998
 2063
 2056
 1974
 1990
 2070
 2022
 1985
 2069
 2091
 2065
 2046
 2037
 2039
 2057
 2043
 2091
 2055
 2062
 2050
 2118
 2015
 2023
 1963
 1986
 2052
 1965
 2031
 2062
 2043
 2051
 1977
 2037
 2001
 2037
 2015
 2012
 1945
 1956
 1960
 2099
 2030
 2000
 2119
 2045
 2097
 2036
 2032
 2111
 1970
 2033
 1949
 2036
 1997
 1954
 2036
 1990
 2001
 2061
 1959
 1968
 1960
 1974
 2019
 1959
 2036
 2047
 2045
 2006
 1963
 2014
 1993
 2023
 2000
 1961
 1998
 2093
 1976
 2037
 2058
 1990
 2028
 2042
 1984
 2002
 1963
 1984
 2024
 2042
 2035
 2073
 2070
 1990
 2042
 1978
 1937
 1938
 2026
 1944
 2107
 2034
 2062
 2032
 1976
 1982
 2072
 1984
 2004
 2036
 1980
 2021
 2066
 2023
 2050
 2079
 2098
 2040
 2040
 2060
 1974
 2102
 2021
 1955
 1961
 2033
 2030
 2112
 1984
 2042
 1928
 2018
 2051
 2037
 2072
 2062
 2090
 2049
 2024
 2058
 2059
 1969
 2075
 1978
 2062
 2033
 2026
 2010
 1986
 2046
 1977
 1993
 1982
 1990
 2058
 2027
 2113
 2000
 2057
 2074
 2061
 2064
 2053
 2041
 2067
 1958
 2064
 2051
 2026
 1968
 2059
 2053
 1995
 2034
 2096
 2068
 1992
 2078
 1996
 2066
 2080
 2114
 2020
 1988
 1989
 2069
 2045
 2062
 1977
 2075
 2041
 2021
 2068
 2014
 2068
 2055
 2078
 2136
 2104
 2015
 2035
 1997
 2065
 2087
 2056
 1996
 1997
 2088
 2125
 2060
 2054
 2063
 2047
 2072
 2004
 2098
 1997
 1979
 1997
 1987
 2074
 2075
 2016
 2009
 2067
 2008
 2053
 2067
 2050
 2048
 2044
 2052
 2118
 1974
 2056
 2007
 2006
 2111
 2062
 2002
 2103
 1993
 1984
 1962
 2050
 2033
 2089
 2020
 1988
 1940
 2032
 2007
 2042
 2016
 2052
 2057
 2092
 2058
 2018
 2005
 2060
 2119
 2074
 2049
 2078
 1983
 2030
 1962
 1983
 2038
 1995
 2055
 1982
 2062
 1987
 1998
 2070
 1993
 2025
 2092
 2008
 2054
 2056
 2034
 2013
 1976
 2025
 2121
 2109
 2055
 2011
 2028
 2068
 1998
 2135
 2138
 1986
 2043
 2004
 2066
 2057
 1997
 2129
 2032
 2093
 2049
 2044
 2089
 1981
 2040
 2110
 1960
 2065
 2066
 2000
 2074
 2040
 2131
 1994
 1994
 2042
 2048
 2057
 2054
 2029
 2050
 2099
 2102
 2050
 2016
 2057
 2000
 2107
 2112
 2067
 2039
 2016
 2070
 2131
 2008
 2090
 2115
 2076
 2045
 2003
 2098
 2038
 2020
 2052
 2054
 2123
 1997
 2092
 2018
 2126
 2019
 2021
 2061
 1994
 2128
 2050
 2049
 2076
 2024
 1970
 2039
 2058
 2008
 2049
 2043
 2020
 2004
 2061
 2076
 1988
 1978
 2068
 2000
 2026
 2147
 2046
 2066
 2074
 1994
 2073
 2045
 2002
 2059
 2092
 1989
 2053
 2064
 2003
 2001
 1980
 2058
 2121
 2085
 2056
 1989
 1985
 2001
 1986
 2044
 1974
 2132
 2044
 2000
 2037
 2040
 2056
 2056
 2034
 2126
 2024
 2007
 1987
 2102
 2104
 2000
 1980
 1998
 2012
 2040
 2065
 1962
 2072
 1982
 2126
 2100
 2043
 2041
 2091
 2069
 2025
 2099
 1991
 1996
 2095
 2001
 2055
 2032
 2118
 2055
 1987
 2050
 2055
 2055
 2038
 2070
 2058
 2056
 2104
 2145
 2010
 2018
 2008
 2076
 1981
 2050
 2066
 2055
 2102
 2060
 2090
 1963
 2050
 2104
 2049
 2044
 2064
 2024
 2126
 2069
 2066
 2046
 2020
 2125
 2017
 2030
 2055
 2049
 2099
 2002
 2055
 2082
 2021
 2081
 2020
 2034
 2067
 2020
 2071
 2053
 2072
 2074
 2056
 2040
 2071
 2025
 2058
 1978
 2076
 2062
 2078
 2071
 2028
 1991
 2102
 2054
 2019
 2062
 2132
 2008
 2045
 2071
 2061
 2052
 1993
 2005
 2060
 2114
 2072
 2110
 2051
 2067
 2070
 2025
 2019
 2057
 2120
 1978
 2026
 2079
 2123
 2131
 1980
 2037
 2093
 2127
 2104
 2061
 2058
 2058
 2070
 2092
 2055
 2015
 1995
 2075
 2053
 2052
 2040
 2045
 2073
 2045
 2036
 2072
 2068
 2076
 2057
 2018
 2000
 2046
 2009
 2056
 2047
 2053
 2111
 2046
 1992
 2062
 2055
 2049
 2062
 1981
 2087
 2053
 1998
 2074
 1991
 2064
 2045
 2072
 2020
 2134
 2057
 2057
 2032
 2133
 2096
 2050
 2061
 2044
 2054
 2024
 2076
 2073
 2010
 1962
 2113
 1959
 2007
 2041
 2044
 2069
 2106
 2064
 1985
 2028
 2053
 2099
 2123
 1970
 2036
 2046
 1954
 2045
 1979
 2020
 2034
 2047
 2020
 2063
 1946
 1979
 1983
 2032
 1979
 1990
 2113
 2111
 2092
 2024
 1987
 1961
 1964
 1948
 1955
 1969
 2015
 1937
 2010
 1960
 1940
 1984
 2053
 2052
 2043
 2024
 2042
 1976
 2105
 2033
 2054
 2130
 2062
 1993
 2030
 2050
 2039
 1963
 1967
 1968
 2054
 2052
 2050
 1978
 1983
 2090
 2096
 2052
 2052
 1955
 2078
 2095
 1965
 2027
 1986
 2023
 2018
 2043
 1964
 2093
 2041
 1978
 2078
 2046
 2046
 1971
 2047
 2014
 2115
 1961
 1984
 2047
 2014
 2027
 1968
 1960
 2005
 2084
 2032
 2037
 2026
 2090
 2047
 2036
 2035
 2047
 2067
 2056
 1965
 1976
 2117
 1966
 2026
 1964
 1972
 2033
 2027
 1984
 2043
 2043
 2072
 1998
 1960
 2040
 2028
 2002
 2003
 2125
 2086
 2060
 2098
 2030
 2033
 2045
 1960
 1996
 2011
 1992
 2053
 2014
